# multipoles
# s[mm] polynom_b[n=0][T/m^n] polynom_b[n=2][T/m^n] polynom_b[n=8][T/m^n] polynom_b[n=14][T/m^n] 
+0.0000000000000000e+00 +5.2256936262880128e-07 -9.5071377865689790e+00 +8.0572263289713364e+09 +1.8949790023273424e+20 
+1.0000000000000001e-01 +5.2224542665402218e-07 -9.5071276916781162e+00 +8.0566714010256176e+09 +1.8948904870240669e+20 
+2.0000000000000001e-01 +5.2134434158196702e-07 -9.5070995935251936e+00 +8.0550736324304142e+09 +1.8946686808637604e+20 
+3.0000000000000004e-01 +5.1997219173768335e-07 -9.5070567718908432e+00 +8.0525335461658201e+09 +1.8943791934428027e+20 
+4.0000000000000002e-01 +5.1823506144402769e-07 -9.5070025065556933e+00 +8.0491516652181273e+09 +1.8940876343553845e+20 
+5.0000000000000000e-01 +5.1623903499768333e-07 -9.5069400772996655e+00 +8.0450285124883375e+09 +1.8938596132174928e+20 
+6.0000000000000009e-01 +5.1409019672442831e-07 -9.5068727639034183e+00 +8.0402646109616127e+09 +1.8937607396238334e+20 
+7.0000000000000007e-01 +5.1189463092837196e-07 -9.5068038461471236e+00 +8.0349604835739250e+09 +1.8938566231812017e+20 
+8.0000000000000004e-01 +5.0975842193468362e-07 -9.5067366038113708e+00 +8.0292166532975388e+09 +1.8942128734880711e+20 
+9.0000000000000002e-01 +5.0778765404942017e-07 -9.5066743166763743e+00 +8.0231336430743160e+09 +1.8948951001493956e+20 
+1.0000000000000000e+00 +5.0608841160176832e-07 -9.5066202645228373e+00 +8.0168119758922186e+09 +1.8959689127596648e+20 
+1.1000000000000001e+00 +5.0474186556262315e-07 -9.5065769610375135e+00 +8.0103516784676809e+09 +1.8974751375243962e+20 
+1.2000000000000002e+00 +5.0372953368299308e-07 -9.5065438555360213e+00 +8.0038507929327354e+09 +1.8993554669710852e+20 
+1.3000000000000000e+00 +5.0300802036691643e-07 -9.5065196312402200e+00 +7.9974068651641092e+09 +1.9015268102346631e+20 
+1.4000000000000001e+00 +5.0253393002707478e-07 -9.5065029713722318e+00 +7.9911174410729790e+09 +1.9039060764413280e+20 
+1.5000000000000000e+00 +5.0226386707444525e-07 -9.5064925591541485e+00 +7.9850800665643082e+09 +1.9064101747190455e+20 
+1.6000000000000001e+00 +5.0215443592560481e-07 -9.5064870778080888e+00 +7.9793922875397320e+09 +1.9089560141968841e+20 
+1.7000000000000002e+00 +5.0216224098617448e-07 -9.5064852105559687e+00 +7.9741516498860474e+09 +1.9114605040070826e+20 
+1.8000000000000000e+00 +5.0224388667139197e-07 -9.5064856406199567e+00 +7.9694556995166254e+09 +1.9138405532754647e+20 
+1.9000000000000001e+00 +5.0235597739917341e-07 -9.5064870512223010e+00 +7.9654019823551884e+09 +1.9160130711252461e+20 
+2.0000000000000000e+00 +5.0245511757221817e-07 -9.5064881255848022e+00 +7.9620880442692556e+09 +1.9178949666938736e+20 
+2.1000000000000001e+00 +5.0250656302148323e-07 -9.5064878157669224e+00 +7.9595833912112284e+09 +1.9194198662721851e+20 
+2.2000000000000002e+00 +5.0251017522169088e-07 -9.5064861491769417e+00 +7.9578453692533007e+09 +1.9205882648204752e+20 
+2.3000000000000003e+00 +5.0247446706486470e-07 -9.5064834220603327e+00 +7.9568032844871693e+09 +1.9214173744691659e+20 
+2.4000000000000004e+00 +5.0240795143061174e-07 -9.5064799306624277e+00 +7.9563864429947262e+09 +1.9219244073510371e+20 
+2.5000000000000000e+00 +5.0231914121558176e-07 -9.5064759712288307e+00 +7.9565241508866138e+09 +1.9221265755916589e+20 
+2.6000000000000001e+00 +5.0221654929292965e-07 -9.5064718400047514e+00 +7.9571457142313852e+09 +1.9220410913269518e+20 
+2.7000000000000002e+00 +5.0210868857196566e-07 -9.5064678332360764e+00 +7.9581804391707315e+09 +1.9216851666748745e+20 
+2.8000000000000003e+00 +5.0200407192645348e-07 -9.5064642471679601e+00 +7.9595576317610254e+09 +1.9210760137749765e+20 
+2.9000000000000004e+00 +5.0191121225170370e-07 -9.5064613780460494e+00 +7.9612065981225271e+09 +1.9202308447499380e+20 
+3.0000000000000000e+00 +5.0183862243560123e-07 -9.5064595221157795e+00 +7.9630566443435640e+09 +1.9191668717312950e+20 
+3.1000000000000001e+00 +5.0179208295183345e-07 -9.5064588699674424e+00 +7.9650340933199291e+09 +1.9179106469036524e+20 
+3.2000000000000002e+00 +5.0176644470421688e-07 -9.5064591895722739e+00 +7.9670533352930851e+09 +1.9165260826402541e+20 
+3.3000000000000003e+00 +5.0175382614426751e-07 -9.5064601432454712e+00 +7.9690257772092524e+09 +1.9150864313931743e+20 
+3.4000000000000004e+00 +5.0174634575563934e-07 -9.5064613933029669e+00 +7.9708628260955153e+09 +1.9136649455944591e+20 
+3.5000000000000000e+00 +5.0173612202929035e-07 -9.5064626020608429e+00 +7.9724758889964781e+09 +1.9123348776720017e+20 
+3.6000000000000001e+00 +5.0171527342379729e-07 -9.5064634318344208e+00 +7.9737763728654528e+09 +1.9111694800765112e+20 
+3.7000000000000002e+00 +5.0167591842110983e-07 -9.5064635449396366e+00 +7.9746756847366829e+09 +1.9102420052378544e+20 
+3.8000000000000003e+00 +5.0161017550549058e-07 -9.5064626036923343e+00 +7.9750852316200180e+09 +1.9096257055930044e+20 
+3.9000000000000004e+00 +5.0151016314208989e-07 -9.5064602704081214e+00 +7.9749164205126925e+09 +1.9093938335810853e+20 
+4.0000000000000000e+00 +5.0136799981492684e-07 -9.5064562074028789e+00 +7.9740806584327288e+09 +1.9096196416366202e+20 
+4.1000000000000005e+00 +5.0118022169548425e-07 -9.5064502435758769e+00 +7.9725395361230545e+09 +1.9103433060471869e+20 
+4.2000000000000002e+00 +5.0096103575756610e-07 -9.5064428741611113e+00 +7.9704553793532953e+09 +1.9114726984813150e+20 
+4.2999999999999998e+00 +5.0072906669640371e-07 -9.5064347609766617e+00 +7.9680406976907320e+09 +1.9128826144426256e+20 
+4.4000000000000004e+00 +5.0050293917362988e-07 -9.5064265658398774e+00 +7.9655080006210194e+09 +1.9144478494550776e+20 
+4.5000000000000000e+00 +5.0030127786317229e-07 -9.5064189505683387e+00 +7.9630697976571970e+09 +1.9160431990356266e+20 
+4.6000000000000005e+00 +5.0014270745953221e-07 -9.5064125769802050e+00 +7.9609385983792000e+09 +1.9175434586846681e+20 
+4.7000000000000002e+00 +5.0004585262215086e-07 -9.5064081068926463e+00 +7.9593269122471809e+09 +1.9188234239327155e+20 
+4.8000000000000007e+00 +5.0002933803846884e-07 -9.5064062021236939e+00 +7.9584472488318243e+09 +1.9197578902820536e+20 
+4.9000000000000004e+00 +5.0011178837584024e-07 -9.5064075244907293e+00 +7.9585121176168575e+09 +1.9202216532575289e+20 
+5.0000000000000000e+00 +5.0031182832450533e-07 -9.5064127358117627e+00 +7.9597340281627798e+09 +1.9200895083643627e+20 
+5.1000000000000005e+00 +5.0064099462982932e-07 -9.5064222562924154e+00 +7.9622498031623840e+09 +1.9192773614820767e+20 
+5.2000000000000002e+00 +5.0108247241434904e-07 -9.5064355396921876e+00 +7.9658935181758204e+09 +1.9178655599069020e+20 
+5.3000000000000007e+00 +5.0161235884440474e-07 -9.5064517981578938e+00 +7.9704235618588495e+09 +1.9159755613184878e+20 
+5.4000000000000004e+00 +5.0220675110861404e-07 -9.5064702438369864e+00 +7.9755983229491673e+09 +1.9137288233753706e+20 
+5.5000000000000000e+00 +5.0284174640253378e-07 -9.5064900888769497e+00 +7.9811761901767969e+09 +1.9112468037389376e+20 
+5.6000000000000005e+00 +5.0349344189238241e-07 -9.5065105454246588e+00 +7.9869155522061872e+09 +1.9086509600865668e+20 
+5.7000000000000002e+00 +5.0413793478357709e-07 -9.5065308256278787e+00 +7.9925747978040209e+09 +1.9060627500701080e+20 
+5.8000000000000007e+00 +5.0475132224964035e-07 -9.5065501416336122e+00 +7.9979123156467152e+09 +1.9036036313642179e+20 
+5.9000000000000004e+00 +5.0530970147468594e-07 -9.5065677055891733e+00 +8.0026864944532051e+09 +1.9013950616323971e+20 
+6.0000000000000000e+00 +5.0578916964854876e-07 -9.5065827296418863e+00 +8.0066557229334164e+09 +1.8995584985409808e+20 
+6.1000000000000005e+00 +5.0617203345645759e-07 -9.5065946216405788e+00 +8.0096415849603548e+09 +1.8981845228245674e+20 
+6.2000000000000002e+00 +5.0646543765748998e-07 -9.5066035722415716e+00 +8.0117184451800947e+09 +1.8972402074630927e+20 
+6.3000000000000007e+00 +5.0668273648505713e-07 -9.5066099678021452e+00 +8.0130238633420067e+09 +1.8966617485191476e+20 
+6.4000000000000004e+00 +5.0683728420032583e-07 -9.5066141946800489e+00 +8.0136953992327862e+09 +1.8963853420471501e+20 
+6.5000000000000000e+00 +5.0694243505521062e-07 -9.5066166392330054e+00 +8.0138706126462440e+09 +1.8963471840993496e+20 
+6.6000000000000005e+00 +5.0701154329200955e-07 -9.5066176878184567e+00 +8.0136870633450880e+09 +1.8964834707351952e+20 
+6.7000000000000002e+00 +5.0705796316580232e-07 -9.5066177267940741e+00 +8.0132823111132488e+09 +1.8967303980095259e+20 
+6.8000000000000007e+00 +5.0709504892935599e-07 -9.5066171425175146e+00 +8.0127939157311068e+09 +1.8970241619781816e+20 
+6.9000000000000004e+00 +5.0713615483409838e-07 -9.5066163213464527e+00 +8.0123594369895763e+09 +1.8973009586936545e+20 
+7.0000000000000000e+00 +5.0719463512342298e-07 -9.5066156496383343e+00 +8.0121164346486120e+09 +1.8974969842164498e+20 
+7.1000000000000005e+00 +5.0727953731919874e-07 -9.5066153878205490e+00 +8.0121614972427320e+09 +1.8975661163366951e+20 
+7.2000000000000002e+00 +5.0738268201203430e-07 -9.5066152925993990e+00 +8.0124273283193769e+09 +1.8975329597822625e+20 
+7.3000000000000007e+00 +5.0749158303924089e-07 -9.5066149947503504e+00 +8.0128056601114321e+09 +1.8974398010327237e+20 
+7.4000000000000004e+00 +5.0759375425480786e-07 -9.5066141250492464e+00 +8.0131882248903646e+09 +1.8973289265582893e+20 
+7.5000000000000000e+00 +5.0767670950006372e-07 -9.5066123142717451e+00 +8.0134667549193087e+09 +1.8972426228304419e+20 
+7.6000000000000005e+00 +5.0772796263398883e-07 -9.5066091931937216e+00 +8.0135329824662561e+09 +1.8972231763207481e+20 
+7.7000000000000002e+00 +5.0773502750034642e-07 -9.5066043925909067e+00 +8.0132786398030338e+09 +1.8973128734984185e+20 
+7.8000000000000007e+00 +5.0768541794436080e-07 -9.5065975432389855e+00 +8.0125954591890821e+09 +1.8975540008361889e+20 
+7.9000000000000004e+00 +5.0756664782062971e-07 -9.5065882759137850e+00 +8.0113751728918886e+09 +1.8979888448056541e+20 
+8.0000000000000000e+00 +5.0736623097291655e-07 -9.5065762213909561e+00 +8.0095095131675844e+09 +1.8986596918802226e+20 
+8.0999999999999996e+00 +5.0707636426589042e-07 -9.5065611544792130e+00 +8.0069281575513525e+09 +1.8995941569578815e+20 
+8.2000000000000011e+00 +5.0670797664126978e-07 -9.5065434261194373e+00 +8.0037125647072763e+09 +1.9007611686289922e+20 
+8.3000000000000007e+00 +5.0627668004646212e-07 -9.5065235312851968e+00 +7.9999821385317869e+09 +1.9021149839200800e+20 
+8.4000000000000004e+00 +5.0579808643897857e-07 -9.5065019649503242e+00 +7.9958562829554768e+09 +1.9036098598490669e+20 
+8.5000000000000000e+00 +5.0528780775904431e-07 -9.5064792220882257e+00 +7.9914544018603277e+09 +1.9052000534457041e+20 
+8.5999999999999996e+00 +5.0476145596477938e-07 -9.5064557976727464e+00 +7.9868958991783066e+09 +1.9068398217274930e+20 
+8.7000000000000011e+00 +5.0423464301101679e-07 -9.5064321866776105e+00 +7.9823001788221025e+09 +1.9084834217171432e+20 
+8.8000000000000007e+00 +5.0372298083883396e-07 -9.5064088840763219e+00 +7.9777866446924019e+09 +1.9100851104392449e+20 
+8.9000000000000004e+00 +5.0324208141888943e-07 -9.5063863848429371e+00 +7.9734747007360001e+09 +1.9115991449083442e+20 
+9.0000000000000000e+00 +5.0280755668653880e-07 -9.5063651839507841e+00 +7.9694837508281403e+09 +1.9129797821557817e+20 
+9.0999999999999996e+00 +5.0243062513964775e-07 -9.5063456334086531e+00 +7.9659024944377060e+09 +1.9141931103783017e+20 
+9.2000000000000011e+00 +5.0210493142483819e-07 -9.5063275133648109e+00 +7.9626968131238384e+09 +1.9152525425063533e+20 
+9.3000000000000007e+00 +5.0181972673444246e-07 -9.5063104610025224e+00 +7.9598018839842119e+09 +1.9161833226493012e+20 
+9.4000000000000004e+00 +5.0156426226541910e-07 -9.5062941135052430e+00 +7.9571528841427603e+09 +1.9170106949100211e+20 
+9.5000000000000000e+00 +5.0132778919025776e-07 -9.5062781080558789e+00 +7.9546849906639271e+09 +1.9177599034056481e+20 
+9.6000000000000014e+00 +5.0109955870530807e-07 -9.5062620818378019e+00 +7.9523333806580439e+09 +1.9184561922425353e+20 
+9.7000000000000011e+00 +5.0086882200314622e-07 -9.5062456720343995e+00 +7.9500332312395535e+09 +1.9191248055259896e+20 
+9.8000000000000007e+00 +5.0062483026709605e-07 -9.5062285158287310e+00 +7.9477197194888029e+09 +1.9197909873692656e+20 
+9.9000000000000004e+00 +5.0035683469630726e-07 -9.5062102504042691e+00 +7.9453280225219030e+09 +1.9204799818779686e+20 
+1.0000000000000000e+01 +5.0005408646375645e-07 -9.5061905129439825e+00 +7.9427933174173145e+09 +1.9212170331651663e+20 
+1.0100000000000001e+01 +4.9971222651149487e-07 -9.5061691574892464e+00 +7.9400890637310419e+09 +1.9220138090960431e+20 
+1.0200000000000001e+01 +4.9935245472944089e-07 -9.5061469055127237e+00 +7.9373418507213659e+09 +1.9228276725907518e+20 
+1.0300000000000001e+01 +4.9900236075418860e-07 -9.5061246953451874e+00 +7.9347165501129265e+09 +1.9236024103226379e+20 
+1.0400000000000000e+01 +4.9868953421928818e-07 -9.5061034653172634e+00 +7.9323780336086121e+09 +1.9242818089705446e+20 
+1.0500000000000000e+01 +4.9844156475658610e-07 -9.5060841537595220e+00 +7.9304911729015169e+09 +1.9248096552163069e+20 
+1.0600000000000001e+01 +4.9828604200559766e-07 -9.5060676990027702e+00 +7.9292208397160225e+09 +1.9251297357333922e+20 
+1.0700000000000001e+01 +4.9825055559549090e-07 -9.5060550393776087e+00 +7.9287319057609243e+09 +1.9251858371985863e+20 
+1.0800000000000001e+01 +4.9836269515786868e-07 -9.5060471132146098e+00 +7.9291892427279034e+09 +1.9249217462941549e+20 
+1.0900000000000000e+01 +4.9865005033419405e-07 -9.5060448588445521e+00 +7.9307577223346195e+09 +1.9242812496955752e+20 
+1.1000000000000000e+01 +4.9914021076337391e-07 -9.5060492145982707e+00 +7.9336022163138781e+09 +1.9232081340739574e+20 
+1.1100000000000001e+01 +4.9984666962298739e-07 -9.5060606363599707e+00 +7.9378019243702621e+09 +1.9216750355005260e+20 
+1.1200000000000001e+01 +5.0072653434573443e-07 -9.5060776502299689e+00 +7.9430933584372835e+09 +1.9197699875590187e+20 
+1.1300000000000001e+01 +5.0172281592209962e-07 -9.5060982998624812e+00 +7.9491273584806499e+09 +1.9176098732184096e+20 
+1.1400000000000000e+01 +5.0277852533051596e-07 -9.5061206289113773e+00 +7.9555547644285984e+09 +1.9153115754567346e+20 
+1.1500000000000000e+01 +5.0383667355732904e-07 -9.5061426810308269e+00 +7.9620264162518492e+09 +1.9129919772408830e+20 
+1.1600000000000001e+01 +5.0484027159156261e-07 -9.5061624998749590e+00 +7.9681931539026432e+09 +1.9107679615434297e+20 
+1.1700000000000001e+01 +5.0573233040665866e-07 -9.5061781290976093e+00 +7.9737058173154230e+09 +1.9087564113400064e+20 
+1.1800000000000001e+01 +5.0645586100600548e-07 -9.5061876123532834e+00 +7.9782152464874439e+09 +1.9070742095919491e+20 
+1.1900000000000000e+01 +5.0695387435841907e-07 -9.5061889932956660e+00 +7.9813722813307028e+09 +1.9058382392808925e+20 
+1.2000000000000000e+01 +5.0716938145888813e-07 -9.5061803155790336e+00 +7.9828277618165207e+09 +1.9051653833745213e+20 
+1.2100000000000001e+01 +5.0706723455635329e-07 -9.5061603701075779e+00 +7.9823640568972750e+09 +1.9051294457747155e+20 
+1.2200000000000001e+01 +5.0669965103498358e-07 -9.5061309367872706e+00 +7.9802896516241894e+09 +1.9056319140821575e+20 
+1.2300000000000001e+01 +5.0614068953241263e-07 -9.5060945427739867e+00 +7.9770445600204468e+09 +1.9065311968348475e+20 
+1.2400000000000000e+01 +5.0546440869698691e-07 -9.5060537152238105e+00 +7.9730687961399250e+09 +1.9076857025622596e+20 
+1.2500000000000000e+01 +5.0474486719251315e-07 -9.5060109812931302e+00 +7.9688023740521421e+09 +1.9089538397920241e+20 
+1.2600000000000001e+01 +5.0405612363605202e-07 -9.5059688681373871e+00 +7.9646853077407961e+09 +1.9101940170708389e+20 
+1.2700000000000001e+01 +5.0347223669567081e-07 -9.5059299029130582e+00 +7.9611576112956104e+09 +1.9112646429202940e+20 
+1.2800000000000001e+01 +5.0306726501509015e-07 -9.5058966127761853e+00 +7.9586592987587090e+09 +1.9120241258735377e+20 
+1.2900000000000000e+01 +5.0291526723669138e-07 -9.5058715248826591e+00 +7.9576303841540308e+09 +1.9123308744684215e+20 
+1.3000000000000000e+01 +5.0309030201113380e-07 -9.5058571663886031e+00 +7.9585108815310593e+09 +1.9120432972362321e+20 
+1.3100000000000001e+01 +5.0363999645704083e-07 -9.5058551513601142e+00 +7.9615743245357304e+09 +1.9110740352601168e+20 
+1.3200000000000001e+01 +5.0450625158010768e-07 -9.5058634415030117e+00 +7.9664283251372356e+09 +1.9095526598474993e+20 
+1.3300000000000001e+01 +5.0560453684462009e-07 -9.5058790854328574e+00 +7.9725140148715372e+09 +1.9076629748649103e+20 
+1.3400000000000000e+01 +5.0685032172533270e-07 -9.5058991317654602e+00 +7.9792725253041039e+09 +1.9055887841715208e+20 
+1.3500000000000000e+01 +5.0815907570771323e-07 -9.5059206291168739e+00 +7.9861449880289698e+09 +1.9035138916193963e+20 
+1.3600000000000001e+01 +5.0944626824849963e-07 -9.5059406261024826e+00 +7.9925725345610437e+09 +1.9016221010802187e+20 
+1.3700000000000001e+01 +5.1062736883547221e-07 -9.5059561713383811e+00 +7.9979962964969034e+09 +1.9000972164057448e+20 
+1.3800000000000001e+01 +5.1161784693596023e-07 -9.5059643134401526e+00 +8.0018574053718224e+09 +1.8991230414627946e+20 
+1.3900000000000000e+01 +5.1233317201875331e-07 -9.5059621010235489e+00 +8.0035969927536106e+09 +1.8988833801092773e+20 
+1.4000000000000000e+01 +5.1268881356785825e-07 -9.5059465827044249e+00 +8.0026561901951599e+09 +1.8995620362088428e+20 
+1.4100000000000001e+01 +5.1263022429078802e-07 -9.5059158508411503e+00 +7.9986844493310823e+09 +1.9012716636760035e+20 
+1.4200000000000001e+01 +5.1222278985944370e-07 -9.5058721727620412e+00 +7.9921645019496841e+09 +1.9038403166838456e+20 
+1.4300000000000001e+01 +5.1156187921074465e-07 -9.5058188595387065e+00 +7.9837873999782495e+09 +1.9070248994447799e+20 
+1.4400000000000000e+01 +5.1074286125202849e-07 -9.5057592222420713e+00 +7.9742441952766314e+09 +1.9105823161869622e+20 
+1.4500000000000000e+01 +5.0986110489428460e-07 -9.5056965719430817e+00 +7.9642259397017660e+09 +1.9142694711396991e+20 
+1.4600000000000001e+01 +5.0901197907735407e-07 -9.5056342197134427e+00 +7.9544236851931124e+09 +1.9178432685121467e+20 
+1.4700000000000001e+01 +5.0829085270029627e-07 -9.5055754766238127e+00 +7.9455284835765266e+09 +1.9210606125412316e+20 
+1.4800000000000001e+01 +5.0779309469479590e-07 -9.5055236537456587e+00 +7.9382313867672701e+09 +1.9236784074418890e+20 
+1.4900000000000000e+01 +5.0761407398365093e-07 -9.5054820621502500e+00 +7.9332234466582060e+09 +1.9254535574346167e+20 
+1.5000000000000000e+01 +5.0784915946969454e-07 -9.5054540129083538e+00 +7.9311957150863018e+09 +1.9261429667535834e+20 
+1.5100000000000001e+01 +5.0855941306710199e-07 -9.5054416212994894e+00 +7.9325916919941635e+09 +1.9255898110106318e+20 
+1.5200000000000001e+01 +5.0966866863875763e-07 -9.5054422194358601e+00 +7.9368646695080147e+09 +1.9239823513848526e+20 
+1.5300000000000001e+01 +5.1106645300337610e-07 -9.5054519436369898e+00 +7.9432203876891499e+09 +1.9215951204755374e+20 
+1.5400000000000000e+01 +5.1264229300560203e-07 -9.5054669302231218e+00 +7.9508645866902752e+09 +1.9187026508588623e+20 
+1.5500000000000000e+01 +5.1428571548508862e-07 -9.5054833155142990e+00 +7.9590030066363859e+09 +1.9155794751181482e+20 
+1.5600000000000001e+01 +5.1588624728161091e-07 -9.5054972358306458e+00 +7.9668413876623278e+09 +1.9125001258341345e+20 
+1.5700000000000001e+01 +5.1733341523031788e-07 -9.5055048274920644e+00 +7.9735854698752708e+09 +1.9097391355946956e+20 
+1.5800000000000001e+01 +5.1851674616721094e-07 -9.5055022268186224e+00 +7.9784409934119349e+09 +1.9075710369794861e+20 
+1.5900000000000000e+01 +5.1932576693827346e-07 -9.5054855701305012e+00 +7.9806136984068794e+09 +1.9062703625700128e+20 
+1.6000000000000000e+01 +5.1965000436915918e-07 -9.5054509937474485e+00 +7.9793093249552517e+09 +1.9061116449566740e+20 
+1.6100000000000001e+01 +5.1941439466587184e-07 -9.5053958560502423e+00 +7.9739823170207615e+09 +1.9072866633021175e+20 
+1.6199999999999999e+01 +5.1868551152562425e-07 -9.5053224036629160e+00 +7.9650819339368105e+09 +1.9096561830856802e+20 
+1.6300000000000001e+01 +5.1756533798617174e-07 -9.5052341052695724e+00 +7.9533061388026161e+09 +1.9129982163834464e+20 
